0.00125	-0.005
0.0025	-0.005
0.00375	-0.005
0.005	-0.005
0.00625	-0.015
0.0075	-0.024
0.00875	-0.02
0.01	-0.01
0.01125	-0.02
0.0125	-0.02
0.01375	-0.029
0.015	-0.024
0.01625	-0.02
0.0175	-0.02
0.01875	-0.015
0.02	-0.015
0.02125	-0.02
0.0225	-0.02
0.02375	-0.01
0.025	-0.005
0.02625	0
0.0275	-0.01
0.02875	-0.015
0.03	-0.005
0.03125	-0.005
0.0325	-0.005
0.03375	-0.005
0.035	0
0.03625	0.005
0.0375	0.01
0.03875	0.01
0.04	0.01
0.04125	0.024
0.0425	0.024
0.04375	0.02
0.045	0.029
0.04625	0.034
0.0475	0.029
0.04875	0.034
0.05	0.034
0.05125	0.029
0.0525	0.024
0.05375	0.01
0.055	0.005
0.05625	-0.005
0.0575	0
0.05875	0
0.06	-0.01
0.06125	0
0.0625	0
0.06375	-0.005
0.065	0
0.06625	-0.005
0.0675	0
0.06875	0.005
0.07	0.01
0.07125	0.005
0.0725	0.005
0.07375	0.005
0.075	0.01
0.07625	0.015
0.0775	0.01
0.07875	0.015
0.08	0.02
0.08125	0.015
0.0825	0.015
0.08375	0.015
0.085	0.015
0.08625	0.015
0.0875	0.015
0.08875	0.02
0.09	0.015
0.09125	0.01
0.0925	0.01
0.09375	0.01
0.095	0.005
0.09625	-0.01
0.0975	-0.015
0.09875	-0.005
0.1	0
0.10125	-0.01
0.1025	-0.01
0.10375	-0.01
0.105	-0.01
0.10625	-0.01
0.1075	-0.01
0.10875	-0.015
0.11	-0.015
0.11125	-0.015
0.1125	-0.015
0.11375	-0.01
0.115	-0.01
0.11625	-0.005
0.1175	-0.005
0.11875	-0.005
0.12	-0.01
0.12125	-0.005
0.1225	-0.005
0.12375	0.005
0.125	0
0.12625	-0.005
0.1275	0.005
0.12875	0
0.13	0
0.13125	-0.005
0.1325	-0.005
0.13375	0
0.135	0.015
0.13625	0.015
0.1375	0.02
0.13875	0.029
0.14	0.02
0.14125	0.015
0.1425	0.015
0.14375	0
0.145	-0.029
0.14625	-0.034
0.1475	-0.015
0.14875	0.01
0.15	0.024
0.15125	0.024
0.1525	0.02
0.15375	0.015
0.155	0.015
0.15625	0.01
0.1575	0.005
0.15875	0.005
0.16	0.01
0.16125	0.01
0.1625	0.01
0.16375	0
0.165	-0.01
0.16625	-0.015
0.1675	-0.005
0.16875	-0.01
0.17	-0.005
0.17125	-0.005
0.1725	-0.029
0.17375	-0.029
0.175	0.005
0.17625	-0.01
0.1775	-0.02
0.17875	0.005
0.18	0.005
0.18125	-0.024
0.1825	-0.02
0.18375	0.015
0.185	0.015
0.18625	0.01
0.1875	0.005
0.18875	0.01
0.19	0.005
0.19125	0.01
0.1925	0.01
0.19375	0.01
0.195	0.015
0.19625	0.015
0.1975	0.015
0.19875	0.01
0.2	0
0.20125	-0.005
0.2025	0
0.20375	-0.005
0.205	-0.01
0.20625	-0.015
0.2075	-0.01
0.20875	-0.005
0.21	0.005
0.21125	0.01
0.2125	0.02
0.21375	0.015
0.215	0.015
0.21625	0.005
0.2175	0.005
0.21875	-0.01
0.22	-0.01
0.22125	0.02
0.2225	0.029
0.22375	0.01
0.225	0.015
0.22625	0.029
0.2275	0.024
0.22875	0.015
0.23	0.005
0.23125	-0.01
0.2325	-0.01
0.23375	0.005
0.235	0.015
0.23625	0.015
0.2375	-0.005
0.23875	0.01
0.24	0.005
0.24125	-0.005
0.2425	0.005
0.24375	0
0.245	-0.005
0.24625	0.005
0.2475	0.01
0.24875	0.005
0.25	0.034
0.25125	0.024
0.2525	-0.015
0.25375	0.01
0.255	-0.015
0.25625	-0.039
0.2575	-0.049
0.25875	-0.073
0.26	-0.059
0.26125	0
0.2625	0.01
0.26375	0.024
0.265	0.02
0.26625	0.015
0.2675	0.015
0.26875	0.01
0.27	0.005
0.27125	-0.024
0.2725	-0.039
0.27375	-0.024
0.275	0
0.27625	0.024
0.2775	0.02
0.27875	-0.01
0.28	0.005
0.28125	-0.01
0.2825	-0.005
0.28375	0.01
0.285	0.015
0.28625	-0.01
0.2875	-0.015
0.28875	0
0.29	0.005
0.29125	-0.02
0.2925	-0.01
0.29375	-0.005
0.295	-0.015
0.29625	-0.005
0.2975	-0.01
0.29875	-0.005
0.3	0.01
0.30125	0.02
0.3025	0.02
0.30375	0.054
0.305	0.024
0.30625	0.005
0.3075	-0.024
0.30875	-0.049
0.31	-0.029
0.31125	0.024
0.3125	0.059
0.31375	0.054
0.315	0.034
0.31625	0.034
0.3175	0.044
0.31875	0.029
0.32	-0.005
0.32125	-0.049
0.3225	-0.073
0.32375	-0.063
0.325	-0.054
0.32625	-0.059
0.3275	0.044
0.32875	0.063
0.33	0.039
0.33125	0.005
0.3325	-0.01
0.33375	0.005
0.335	0.01
0.33625	-0.01
0.3375	0.01
0.33875	-0.01
0.34	-0.029
0.34125	-0.005
0.3425	0.024
0.34375	0.034
0.345	0.029
0.34625	0.039
0.3475	0.103
0.34875	0.088
0.35	0.034
0.35125	-0.078
0.3525	-0.059
0.35375	-0.078
0.355	-0.127
0.35625	-0.2
0.3575	-0.156
0.35875	-0.103
0.36	-0.054
0.36125	-0.02
0.3625	0
0.36375	0.015
0.365	0.015
0.36625	0.024
0.3675	0.039
0.36875	-0.01
0.37	-0.024
0.37125	0.044
0.3725	0.034
0.37375	0.054
0.375	0.044
0.37625	0.015
0.3775	0.034
0.37875	0.029
0.38	0.034
0.38125	0.039
0.3825	0.01
0.38375	0.02
0.385	0.054
0.38625	0.029
0.3875	0.01
0.38875	0.02
0.39	0.029
0.39125	0.039
0.3925	0.034
0.39375	0.024
0.395	0.02
0.39625	0.02
0.3975	0.024
0.39875	0.024
0.4	0.01
0.40125	0.02
0.4025	0.015
0.40375	0.024
0.405	0.02
0.40625	0.01
0.4075	0.005
0.40875	-0.015
0.41	0
0.41125	-0.02
0.4125	-0.024
0.41375	0.015
0.415	0.015
0.41625	0.034
0.4175	0
0.41875	-0.005
0.42	-0.034
0.42125	-0.059
0.4225	-0.044
0.42375	0.01
0.425	-0.029
0.42625	-0.01
0.4275	-0.005
0.42875	0.024
0.43	0.059
0.43125	-0.02
0.4325	-0.005
0.43375	-0.015
0.435	0.005
0.43625	0.029
0.4375	0.015
0.43875	0.024
0.44	-0.005
0.44125	-0.054
0.4425	-0.049
0.44375	-0.01
0.445	-0.034
0.44625	0.034
0.4475	0.093
0.44875	0.054
0.45	0
0.45125	-0.015
0.4525	-0.01
0.45375	-0.054
0.455	-0.063
0.45625	-0.088
0.4575	-0.049
0.45875	-0.044
0.46	-0.029
0.46125	-0.034
0.4625	-0.029
0.46375	-0.029
0.465	-0.024
0.46625	0
0.4675	-0.01
0.46875	-0.005
0.47	0.02
0.47125	0.01
0.4725	0.005
0.47375	0.01
0.475	0.02
0.47625	0.01
0.4775	0.01
0.47875	0.01
0.48	0.015
0.48125	-0.005
0.4825	0.005
0.48375	0
0.485	0.015
0.48625	0.02
0.4875	-0.005
0.48875	0
0.49	0
0.49125	0
0.4925	0.005
0.49375	0.015
0.495	-0.024
0.49625	-0.02
0.4975	0.024
0.49875	0.068
0.5	0.034
0.50125	0.01
0.5025	0
0.50375	-0.005
0.505	-0.015
0.50625	0.01
0.5075	-0.093
0.50875	-0.088
0.51	0.059
0.51125	0.117
0.5125	0.068
0.51375	0.073
0.515	-0.005
0.51625	-0.024
0.5175	0.005
0.51875	0.01
0.52	-0.02
0.52125	0.02
0.5225	-0.049
0.52375	-0.054
0.525	0.034
0.52625	-0.01
0.5275	-0.039
0.52875	-0.122
0.53	-0.103
0.53125	-0.054
0.5325	0.005
0.53375	0.005
0.535	0.02
0.53625	0.112
0.5375	0.117
0.53875	0.059
0.54	0.005
0.54125	0.107
0.5425	0.244
0.54375	0.327
0.545	0.166
0.54625	-0.068
0.5475	-0.205
0.54875	-0.063
0.55	0.034
0.55125	-0.029
0.5525	-0.073
0.55375	-0.088
0.555	-0.063
0.55625	0.015
0.5575	0.024
0.55875	0.112
0.56	0.19
0.56125	0.278
0.5625	0.386
0.56375	-0.034
0.565	-0.298
0.56625	-0.488
0.5675	-0.581
0.56875	-0.376
0.57	-0.352
0.57125	-0.239
0.5725	-0.078
0.57375	-0.044
0.575	0.01
0.57625	0.044
0.5775	0.059
0.57875	0.068
0.58	0.01
0.58125	0.01
0.5825	-0.024
0.58375	-0.049
0.585	0.029
0.58625	0.063
0.5875	0.088
0.58875	0.171
0.59	0.366
0.59125	0.317
0.5925	0.181
0.59375	0.039
0.595	0.112
0.59625	0.215
0.5975	0.19
0.59875	0.015
0.6	0.068
0.60125	-0.171
0.6025	-0.166
0.60375	0.049
0.605	0.19
0.60625	0.376
0.6075	0.615
0.60875	0.801
0.61	0.259
0.61125	-0.132
0.6125	-0.693
0.61375	-0.64
0.615	-0.474
0.61625	-0.303
0.6175	-0.322
0.61875	-0.332
0.62	-0.259
0.62125	-0.2
0.6225	-0.122
0.62375	-0.083
0.625	-0.044
0.62625	-0.054
0.6275	0.01
0.62875	0.049
0.63	0.161
0.63125	0.234
0.6325	0.2
0.63375	0.127
0.635	-0.044
0.63625	0.015
0.6375	0.049
0.63875	0.01
0.64	-0.034
0.64125	0.078
0.6425	0.039
0.64375	0
0.645	0.166
0.64625	0.093
0.6475	-0.044
0.64875	-0.098
0.65	0
0.65125	0.137
0.6525	0.103
0.65375	0.098
0.655	0.015
0.65625	0.371
0.6575	0.537
0.65875	0.303
0.66	0.146
0.66125	-0.132
0.6625	-0.435
0.66375	-0.088
0.665	0.015
0.66625	0.059
0.6675	-0.122
0.66875	0.19
0.67	0.269
0.67125	0.063
0.6725	-0.435
0.67375	-0.488
0.675	0.181
0.67625	0.337
0.6775	-0.088
0.67875	-0.21
0.68	0.039
0.68125	-0.112
0.6825	-0.322
0.68375	-0.527
0.685	-0.356
0.68625	-0.391
0.6875	0.132
0.68875	0.19
0.69	-0.034
0.69125	0.063
0.6925	0.186
0.69375	-0.132
0.695	-0.01
0.69625	-0.215
0.6975	-0.508
0.69875	-0.361
0.7	-0.303
0.70125	-0.142
0.7025	0.205
0.70375	0.674
0.705	0.488
0.70625	0.156
0.7075	0.308
0.70875	0.171
0.71	0.601
0.71125	0.62
0.7125	-0.049
0.71375	-0.425
0.715	-0.566
0.71625	-0.688
0.7175	-0.425
0.71875	-0.063
0.72	0.054
0.72125	0.293
0.7225	0.073
0.72375	-0.225
0.725	-0.103
0.72625	-0.122
0.7275	0.107
0.72875	0.112
0.73	0.22
0.73125	0.615
0.7325	0.781
0.73375	1.06
0.735	0.889
0.73625	0.474
0.7375	0.386
0.73875	0.02
0.74	-0.645
0.74125	-0.84
0.7425	-0.576
0.74375	-1.099
0.745	-0.981
0.74625	-0.781
0.7475	-0.747
0.74875	-0.293
0.75	-0.239
0.75125	0.107
0.7525	0.425
0.75375	0.674
0.755	0.723
0.75625	0.723
0.7575	1.084
0.75875	1.519
0.76	1.025
0.76125	-0.215
0.7625	-0.713
0.76375	-0.078
0.765	0.171
0.76625	-0.503
0.7675	-1.416
0.76875	-1.948
0.77	-1.348
0.77125	-0.796
0.7725	-0.366
0.77375	-0.049
0.775	-0.029
0.77625	0.137
0.7775	-0.024
0.77875	0.244
0.78	0.479
0.78125	0.498
0.7825	0.342
0.78375	0.19
0.785	0.308
0.78625	1.206
0.7875	2.544
0.78875	2.827
0.79	1.235
0.79125	-0.635
0.7925	-1.416
0.79375	-1.899
0.795	-1.899
0.79625	-1.426
0.7975	-0.801
0.79875	-0.41
0.8	-0.005
0.80125	0.229
0.8025	0.518
0.80375	0.986
0.805	1.44
0.80625	1.665
0.8075	0.474
0.80875	-0.728
0.81	-0.62
0.81125	-0.454
0.8125	-0.918
0.81375	-1.001
0.815	-0.864
0.81625	-0.591
0.8175	-0.234
0.81875	-0.352
0.82	-0.22
0.82125	0.107
0.8225	0.234
0.82375	0.063
0.825	0.005
0.82625	0.054
0.8275	0.171
0.82875	0.239
0.83	0.249
0.83125	0.264
0.8325	0.361
0.83375	0.288
0.835	0.273
0.83625	0.264
0.8375	0.22
0.83875	0.2
0.84	0.181
0.84125	0.347
0.8425	0.19
0.84375	0.059
0.845	0.107
0.84625	0.181
0.8475	0.103
0.84875	0.103
0.85	0.088
0.85125	0.103
0.8525	0.015
0.85375	-0.049
0.855	-0.039
0.85625	-0.093
0.8575	-0.015
0.85875	-0.059
0.86	-0.024
0.86125	0.024
0.8625	-0.039
0.86375	-0.103
0.865	-0.01
0.86625	-0.024
0.8675	0.015
0.86875	0.01
0.87	-0.034
0.87125	-0.073
0.8725	0.024
0.87375	-0.044
0.875	-0.078
0.87625	-0.049
0.8775	-0.049
0.87875	-0.029
0.88	-0.039
0.88125	-0.039
0.8825	-0.02
0.88375	-0.029
0.885	-0.078
0.88625	-0.059
0.8875	-0.054
0.88875	-0.044
0.89	-0.049
0.89125	-0.063
0.8925	-0.054
0.89375	-0.024
0.895	-0.024
0.89625	-0.02
0.8975	-0.024
0.89875	-0.024
0.9	-0.02
0.90125	-0.02
0.9025	-0.044
0.90375	-0.029
0.905	-0.034
0.90625	-0.015
0.9075	-0.005
0.90875	0
0.91	0
0.91125	-0.01
0.9125	-0.005
0.91375	-0.005
0.915	0
0.91625	0
0.9175	-0.005
0.91875	-0.01
0.92	-0.01
0.92125	0
0.9225	-0.005
0.92375	0
0.925	0
0.92625	0
0.9275	0
0.92875	0.005
0.93	0
0.93125	0
0.9325	-0.01
0.93375	-0.005
0.935	-0.005
0.93625	-0.01
0.9375	-0.024
0.93875	-0.029
0.94	-0.039
0.94125	-0.059
0.9425	-0.054
0.94375	-0.034
0.945	-0.01
0.94625	0.015
0.9475	0.029
0.94875	0.039
0.95	0.044
0.95125	0.049
0.9525	0.034
0.95375	0.029
0.955	0.024
0.95625	-0.005
0.9575	-0.029
0.95875	-0.034
0.96	-0.029
0.96125	-0.01
0.9625	0
0.96375	0.005
0.965	0.01
0.96625	0.01
0.9675	0.015
0.96875	0.005
0.97	-0.005
0.97125	-0.01
0.9725	0
0.97375	-0.01
0.975	0
0.97625	-0.015
0.9775	-0.015
0.97875	-0.02
0.98	-0.024
0.98125	-0.024
0.9825	-0.02
0.98375	-0.015
0.985	-0.02
0.98625	-0.015
0.9875	-0.01
0.98875	-0.01
0.99	-0.005
0.99125	0.005
0.9925	0
0.99375	-0.005
0.995	-0.01
0.99625	-0.015
0.9975	-0.054
0.99875	-0.073
1	-0.034
1.00125	-0.01
1.0025	0
1.00375	0.005
1.005	0.02
1.00625	0.029
1.0075	0.029
1.00875	0.029
1.01	0.024
1.01125	0.02
1.0125	0.029
1.01375	0.034
1.015	0.044
1.01625	0.044
1.0175	0.054
1.01875	0.049
1.02	0.044
1.02125	0.049
1.0225	0.049
1.02375	0.054
1.025	0.059
1.02625	0.068
1.0275	0.073
1.02875	0.068
1.03	0.073
1.03125	0.068
1.0325	0.059
1.03375	0.063
1.035	0.063
1.03625	0.063
1.0375	0.059
1.03875	0.049
1.04	0.044
1.04125	0.034
1.0425	0.034
1.04375	0.02
1.045	0.02
1.04625	0.015
1.0475	0
1.04875	-0.01
1.05	-0.015
1.05125	-0.02
1.0525	-0.02
1.05375	-0.024
1.055	-0.029
1.05625	-0.039
1.0575	-0.044
1.05875	-0.049
1.06	-0.049
1.06125	-0.059
1.0625	-0.059
1.06375	-0.063
1.065	-0.063
1.06625	-0.059
1.0675	-0.059
1.06875	-0.054
1.07	-0.049
1.07125	-0.049
1.0725	-0.039
1.07375	-0.034
1.075	-0.024
1.07625	-0.02
1.0775	-0.015
1.07875	0
1.08	0
1.08125	-0.01
1.0825	0
1.08375	0.034
1.085	0.044
1.08625	0.044
1.0875	0.049
1.08875	0.044
1.09	0.049
1.09125	0.049
1.0925	0.054
1.09375	0.063
1.095	0.063
1.09625	0.068
1.0975	0.068
1.09875	0.078
1.1	0.083
1.10125	0.083
1.1025	0.073
1.10375	0.063
1.105	0.044
1.10625	0.044
1.1075	0.034
1.10875	0.024
1.11	0.01
1.11125	0.005
1.1125	-0.015
1.11375	-0.02
1.115	-0.015
1.11625	-0.015
1.1175	-0.02
1.11875	-0.02
1.12	-0.015
1.12125	-0.015
1.1225	-0.015
1.12375	-0.005
1.125	0.01
1.12625	0.005
1.1275	0.005
1.12875	0.01
1.13	0.01
1.13125	0.02
1.1325	0.02
1.13375	0.015
1.135	0.005
1.13625	0
1.1375	0.01
1.13875	0.01
1.14	0.005
1.14125	-0.01
1.1425	-0.024
1.14375	-0.029
1.145	-0.034
1.14625	-0.024
1.1475	-0.029
1.14875	-0.054
1.15	-0.059
1.15125	-0.059
1.1525	-0.063
1.15375	-0.073
1.155	-0.073
1.15625	-0.068
1.1575	-0.068
1.15875	-0.073
1.16	-0.073
1.16125	-0.083
1.1625	-0.103
1.16375	-0.093
1.165	-0.078
1.16625	-0.073
1.1675	-0.073
1.16875	-0.068
1.17	-0.063
1.17125	-0.068
1.1725	-0.059
1.17375	-0.049
1.175	-0.039
1.17625	-0.034
1.1775	-0.034
1.17875	-0.034
1.18	-0.034
1.18125	-0.015
1.1825	0
1.18375	0
1.185	-0.02
1.18625	0.01
1.1875	0.029
1.18875	0.02
1.19	-0.015
1.19125	0.005
1.1925	0.024
1.19375	0.024
1.195	0.034
1.19625	0.02
1.1975	0.02
1.19875	0.044
1.2	0.063
1.20125	0.059
1.2025	0.078
1.20375	0.034
1.205	0.034
1.20625	0.044
1.2075	0.098
1.20875	0.107
1.21	0.088
1.21125	0.015
1.2125	0.044
1.21375	0.073
1.215	0.098
1.21625	0.117
1.2175	0.107
1.21875	0.02
1.22	-0.005
1.22125	0.112
1.2225	0.137
1.22375	0.068
1.225	-0.044
1.22625	-0.005
1.2275	0
1.22875	-0.02
1.23	0.034
1.23125	0.049
1.2325	-0.024
1.23375	-0.103
1.235	-0.044
1.23625	-0.029
1.2375	-0.024
1.23875	-0.02
1.24	-0.02
