0.00125	0.903
0.0025	0.967
0.00375	0.991
0.005	1.001
0.00625	1.006
0.0075	1.035
0.00875	1.074
0.01	1.104
0.01125	1.128
0.0125	1.187
0.01375	1.216
0.015	1.201
0.01625	1.191
0.0175	1.279
0.01875	1.338
0.02	1.294
0.02125	1.26
0.0225	1.23
0.02375	1.206
0.025	1.123
0.02625	1.069
0.0275	1.001
0.02875	0.962
0.03	0.962
0.03125	0.903
0.0325	0.815
0.03375	0.747
0.035	0.732
0.03625	0.698
0.0375	0.649
0.03875	0.586
0.04	0.615
0.04125	0.635
0.0425	0.576
0.04375	0.513
0.045	0.474
0.04625	0.449
0.0475	0.415
0.04875	0.4
0.05	0.356
0.05125	0.259
0.0525	0.127
0.05375	-0.005
0.055	-0.151
0.05625	-0.298
0.0575	-0.444
0.05875	-0.615
0.06	-0.664
0.06125	-0.723
0.0625	-0.801
0.06375	-0.815
0.065	-0.811
0.06625	-0.771
0.0675	-0.723
0.06875	-0.664
0.07	-0.596
0.07125	-0.547
0.0725	-0.483
0.07375	-0.41
0.075	-0.371
0.07625	-0.337
0.0775	-0.313
0.07875	-0.293
0.08	-0.342
0.08125	-0.405
0.0825	-0.454
0.08375	-0.562
0.085	-0.659
0.08625	-0.708
0.0875	-0.762
0.08875	-0.801
0.09	-0.806
0.09125	-0.757
0.0925	-0.757
0.09375	-0.786
0.095	-0.786
0.09625	-0.771
0.0975	-0.747
0.09875	-0.708
0.1	-0.669
0.10125	-0.625
0.1025	-0.581
0.10375	-0.542
0.105	-0.498
0.10625	-0.479
0.1075	-0.439
0.10875	-0.435
0.11	-0.42
0.11125	-0.371
0.1125	-0.327
0.11375	-0.337
0.115	-0.298
0.11625	-0.264
0.1175	-0.229
0.11875	-0.215
0.12	-0.205
0.12125	-0.229
0.1225	-0.278
0.12375	-0.347
0.125	-0.42
0.12625	-0.493
0.1275	-0.596
0.12875	-0.708
0.13	-0.776
0.13125	-0.742
0.1325	-0.674
0.13375	-0.601
0.135	-0.537
0.13625	-0.498
0.1375	-0.439
0.13875	-0.396
0.14	-0.4
0.14125	-0.483
0.1425	-0.464
0.14375	-0.327
0.145	-0.146
0.14625	0.049
0.1475	0.244
0.14875	0.459
0.15	0.713
0.15125	0.928
0.1525	1.084
0.15375	1.152
0.155	1.167
0.15625	1.128
0.1575	1.069
0.15875	1.06
0.16	1.06
0.16125	1.074
0.1625	1.084
0.16375	1.108
0.165	1.089
0.16625	1.064
0.1675	1.035
0.16875	1.006
0.17	0.967
0.17125	0.933
0.1725	0.894
0.17375	0.879
0.175	0.864
0.17625	0.859
0.1775	0.85
0.17875	0.84
0.18	0.84
0.18125	0.82
0.1825	0.786
0.18375	0.737
0.185	0.684
0.18625	0.64
0.1875	0.576
0.18875	0.522
0.19	0.449
0.19125	0.391
0.1925	0.327
0.19375	0.269
0.195	0.195
0.19625	0.137
0.1975	0.063
0.19875	-0.01
0.2	-0.073
0.20125	-0.156
0.2025	-0.239
0.20375	-0.322
0.205	-0.41
0.20625	-0.498
0.2075	-0.576
0.20875	-0.659
0.21	-0.747
0.21125	-0.815
0.2125	-0.889
0.21375	-0.952
0.215	-1.011
0.21625	-1.064
0.2175	-1.123
0.21875	-1.167
0.22	-1.211
0.22125	-1.26
0.2225	-1.284
0.22375	-1.304
0.225	-1.313
0.22625	-1.309
0.2275	-1.299
0.22875	-1.284
0.23	-1.274
0.23125	-1.26
0.2325	-1.221
0.23375	-1.187
0.235	-1.152
0.23625	-1.104
0.2375	-1.05
0.23875	-0.991
0.24	-0.928
0.24125	-0.854
0.2425	-0.776
0.24375	-0.693
0.245	-0.61
0.24625	-0.513
0.2475	-0.41
0.24875	-0.332
0.25	-0.22
0.25125	-0.122
0.2525	-0.02
0.25375	0.093
0.255	0.19
0.25625	0.288
0.2575	0.386
0.25875	0.483
0.26	0.571
0.26125	0.654
0.2625	0.728
0.26375	0.811
0.265	0.879
0.26625	0.962
0.2675	1.05
0.26875	1.152
0.27	1.284
0.27125	1.396
0.2725	1.494
0.27375	1.572
0.275	1.636
0.27625	1.689
0.2775	1.729
0.27875	1.748
0.28	1.753
0.28125	1.748
0.2825	1.724
0.28375	1.685
0.285	1.646
0.28625	1.597
0.2875	1.543
0.28875	1.47
0.29	1.401
0.29125	1.323
0.2925	1.221
0.29375	1.147
0.295	1.055
0.29625	0.952
0.2975	0.85
0.29875	0.742
0.3	0.64
0.30125	0.537
0.3025	0.439
0.30375	0.342
0.305	0.254
0.30625	0.156
0.3075	0.059
0.30875	-0.024
0.31	-0.107
0.31125	-0.176
0.3125	-0.239
0.31375	-0.303
0.315	-0.366
0.31625	-0.41
0.3175	-0.449
0.31875	-0.479
0.32	-0.483
0.32125	-0.493
0.3225	-0.493
0.32375	-0.483
0.325	-0.459
0.32625	-0.439
0.3275	-0.425
0.32875	-0.425
0.33	-0.459
0.33125	-0.537
0.3325	-0.659
0.33375	-0.811
0.335	-0.962
0.33625	-1.113
0.3375	-1.221
0.33875	-1.289
0.34	-1.318
0.34125	-1.318
0.3425	-1.304
0.34375	-1.279
0.345	-1.245
0.34625	-1.201
0.3475	-1.147
0.34875	-1.099
0.35	-1.035
0.35125	-0.967
0.3525	-0.894
0.35375	-0.82
0.355	-0.747
0.35625	-0.669
0.3575	-0.586
0.35875	-0.498
0.36	-0.415
0.36125	-0.327
0.3625	-0.249
0.36375	-0.166
0.365	-0.098
0.36625	-0.024
0.3675	0.039
0.36875	0.093
0.37	0.142
0.37125	0.186
0.3725	0.215
0.37375	0.239
0.375	0.249
0.37625	0.249
0.3775	0.244
0.37875	0.234
0.38	0.225
0.38125	0.215
0.3825	0.205
0.38375	0.181
0.385	0.161
0.38625	0.137
0.3875	0.117
0.38875	0.098
0.39	0.078
0.39125	0.054
0.3925	0.034
0.39375	0.015
0.395	-0.005
0.39625	-0.02
0.3975	-0.034
0.39875	-0.049
0.4	-0.054
0.40125	-0.054
0.4025	-0.059
0.40375	-0.054
0.405	-0.049
0.40625	-0.039
0.4075	-0.02
0.40875	-0.005
0.41	0.015
0.41125	0.044
0.4125	0.068
0.41375	0.103
0.415	0.132
0.41625	0.171
0.4175	0.21
0.41875	0.239
0.42	0.288
0.42125	0.303
0.4225	0.327
0.42375	0.347
0.425	0.361
0.42625	0.366
0.4275	0.371
0.42875	0.371
0.43	0.366
0.43125	0.352
0.4325	0.352
0.43375	0.337
0.435	0.327
0.43625	0.322
0.4375	0.303
0.43875	0.288
0.44	0.264
0.44125	0.244
0.4425	0.215
0.44375	0.19
0.445	0.166
0.44625	0.137
0.4475	0.107
0.44875	0.083
0.45	0.054
0.45125	0.029
0.4525	0
0.45375	-0.029
0.455	-0.054
0.45625	-0.088
0.4575	-0.112
0.45875	-0.127
0.46	-0.142
0.46125	-0.166
0.4625	-0.181
0.46375	-0.2
0.465	-0.22
0.46625	-0.234
0.4675	-0.244
0.46875	-0.259
0.47	-0.278
0.47125	-0.288
0.4725	-0.308
0.47375	-0.327
0.475	-0.332
0.47625	-0.337
0.4775	-0.352
0.47875	-0.361
0.48	-0.366
0.48125	-0.376
0.4825	-0.386
0.48375	-0.391
0.485	-0.396
0.48625	-0.4
0.4875	-0.405
0.48875	-0.41
0.49	-0.42
0.49125	-0.425
0.4925	-0.43
0.49375	-0.435
0.495	-0.439
0.49625	-0.43
0.4975	-0.43
0.49875	-0.415
0.5	-0.405
0.50125	-0.391
0.5025	-0.366
0.50375	-0.347
0.505	-0.322
0.50625	-0.288
0.5075	-0.254
0.50875	-0.22
0.51	-0.186
0.51125	-0.151
0.5125	-0.122
0.51375	-0.103
0.515	-0.078
0.51625	-0.059
0.5175	-0.049
0.51875	-0.029
0.52	-0.02
0.52125	-0.01
0.5225	0.005
0.52375	0.029
0.525	0.039
0.52625	0.063
0.5275	0.083
0.52875	0.098
0.53	0.122
0.53125	0.142
0.5325	0.166
0.53375	0.186
0.535	0.22
0.53625	0.259
0.5375	0.293
0.53875	0.332
0.54	0.366
0.54125	0.4
0.5425	0.43
0.54375	0.464
0.545	0.488
0.54625	0.508
0.5475	0.522
0.54875	0.532
0.55	0.532
0.55125	0.532
0.5525	0.532
0.55375	0.527
0.555	0.527
0.55625	0.527
0.5575	0.537
0.55875	0.557
0.56	0.557
0.56125	0.566
0.5625	0.571
0.56375	0.562
0.565	0.557
0.56625	0.547
0.5675	0.537
0.56875	0.522
0.57	0.498
0.57125	0.469
0.5725	0.449
0.57375	0.425
0.575	0.386
0.57625	0.347
0.5775	0.303
0.57875	0.264
0.58	0.234
0.58125	0.19
0.5825	0.146
0.58375	0.093
0.585	0.054
0.58625	0.039
0.5875	0.01
0.58875	-0.034
0.59	-0.068
0.59125	-0.088
0.5925	-0.122
0.59375	-0.151
0.595	-0.176
0.59625	-0.195
0.5975	-0.21
0.59875	-0.229
0.6	-0.264
0.60125	-0.288
0.6025	-0.293
0.60375	-0.298
0.605	-0.303
0.60625	-0.308
0.6075	-0.317
0.60875	-0.303
0.61	-0.303
0.61125	-0.303
0.6125	-0.293
0.61375	-0.283
0.615	-0.254
0.61625	-0.225
0.6175	-0.19
0.61875	-0.161
0.62	-0.132
0.62125	-0.088
0.6225	-0.044
0.62375	-0.005
0.625	0.02
0.62625	0.034
0.6275	0.059
0.62875	0.093
0.63	0.117
0.63125	0.137
0.6325	0.176
0.63375	0.2
0.635	0.21
0.63625	0.234
0.6375	0.249
0.63875	0.259
0.64	0.259
0.64125	0.259
0.6425	0.249
0.64375	0.239
0.645	0.22
0.64625	0.22
0.6475	0.239
0.64875	0.244
0.65	0.254
0.65125	0.259
0.6525	0.254
0.65375	0.239
0.655	0.21
0.65625	0.19
0.6575	0.166
0.65875	0.146
0.66	0.127
0.66125	0.103
0.6625	0.063
0.66375	0.024
0.665	-0.005
0.66625	-0.039
0.6675	-0.059
0.66875	-0.078
0.67	-0.112
0.67125	-0.137
0.6725	-0.166
0.67375	-0.181
0.675	-0.21
0.67625	-0.229
0.6775	-0.249
0.67875	-0.269
0.68	-0.293
0.68125	-0.327
0.6825	-0.327
0.68375	-0.327
0.685	-0.332
0.68625	-0.342
0.6875	-0.356
0.68875	-0.43
0.69	-0.532
0.69125	-0.664
0.6925	-0.801
0.69375	-0.913
0.695	-0.986
0.69625	-1.064
0.6975	-1.133
0.69875	-1.152
0.7	-1.128
0.70125	-1.108
0.7025	-1.035
0.70375	-0.942
0.705	-0.918
0.70625	-0.889
0.7075	-0.811
0.70875	-0.718
0.71	-0.542
0.71125	-0.449
0.7125	-0.425
0.71375	-0.415
0.715	-0.42
0.71625	-0.405
0.7175	-0.347
0.71875	-0.229
0.72	-0.098
0.72125	0.02
0.7225	0.137
0.72375	0.22
0.725	0.259
0.72625	0.269
0.7275	0.273
0.72875	0.303
0.73	0.327
0.73125	0.352
0.7325	0.381
0.73375	0.41
0.735	0.435
0.73625	0.474
0.7375	0.522
0.73875	0.596
0.74	0.645
0.74125	0.674
0.7425	0.708
0.74375	0.708
0.745	0.693
0.74625	0.688
0.7475	0.669
0.74875	0.635
0.75	0.62
0.75125	0.63
0.7525	0.674
0.75375	0.688
0.755	0.693
0.75625	0.64
0.7575	0.61
0.75875	0.635
0.76	0.659
0.76125	0.635
0.7625	0.61
0.76375	0.601
0.765	0.557
0.76625	0.513
0.7675	0.483
0.76875	0.405
0.77	0.41
0.77125	0.488
0.7725	0.576
0.77375	0.645
0.775	0.679
0.77625	0.684
0.7775	0.708
0.77875	0.723
0.78	0.732
0.78125	0.742
0.7825	0.776
0.78375	0.825
0.785	0.879
0.78625	0.952
0.7875	0.947
0.78875	0.767
0.79	0.313
0.79125	-0.103
0.7925	-0.4
0.79375	-0.591
0.795	-0.752
0.79625	-0.898
0.7975	-1.016
0.79875	-1.108
0.8	-1.187
0.80125	-1.27
0.8025	-1.309
0.80375	-1.333
0.805	-1.338
0.80625	-1.323
0.8075	-1.309
0.80875	-1.294
0.81	-1.27
0.81125	-1.235
0.8125	-1.201
0.81375	-1.167
0.815	-1.113
0.81625	-1.055
0.8175	-0.996
0.81875	-0.938
0.82	-0.874
0.82125	-0.815
0.8225	-0.762
0.82375	-0.713
0.825	-0.659
0.82625	-0.61
0.8275	-0.566
0.82875	-0.527
0.83	-0.493
0.83125	-0.439
0.8325	-0.396
0.83375	-0.352
0.835	-0.308
0.83625	-0.273
0.8375	-0.225
0.83875	-0.186
0.84	-0.171
0.84125	-0.142
0.8425	-0.117
0.84375	-0.098
0.845	-0.083
0.84625	-0.063
0.8475	-0.044
0.84875	-0.029
0.85	0
0.85125	0.034
0.8525	0.073
0.85375	0.112
0.855	0.146
0.85625	0.181
0.8575	0.22
0.85875	0.259
0.86	0.298
0.86125	0.327
0.8625	0.356
0.86375	0.386
0.865	0.415
0.86625	0.439
0.8675	0.464
0.86875	0.493
0.87	0.503
0.87125	0.527
0.8725	0.552
0.87375	0.566
0.875	0.591
0.87625	0.61
0.8775	0.601
0.87875	0.605
0.88	0.61
0.88125	0.61
0.8825	0.61
0.88375	0.601
0.885	0.601
0.88625	0.596
0.8875	0.591
0.88875	0.586
0.89	0.571
0.89125	0.562
0.8925	0.542
0.89375	0.527
0.895	0.508
0.89625	0.483
0.8975	0.459
0.89875	0.435
0.9	0.415
0.90125	0.386
0.9025	0.356
0.90375	0.327
0.905	0.298
0.90625	0.264
0.9075	0.229
0.90875	0.19
0.91	0.151
0.91125	0.122
0.9125	0.093
0.91375	0.083
0.915	0.063
0.91625	0.049
0.9175	0.029
0.91875	0.005
0.92	-0.005
0.92125	-0.015
0.9225	-0.034
0.92375	-0.054
0.925	-0.068
0.92625	-0.068
0.9275	-0.088
0.92875	-0.093
0.93	-0.098
0.93125	-0.103
0.9325	-0.117
0.93375	-0.127
0.935	-0.142
0.93625	-0.151
0.9375	-0.161
0.93875	-0.166
0.94	-0.171
0.94125	-0.181
0.9425	-0.181
0.94375	-0.19
0.945	-0.19
0.94625	-0.2
0.9475	-0.195
0.94875	-0.186
0.95	-0.181
0.95125	-0.186
0.9525	-0.171
0.95375	-0.161
0.955	-0.146
0.95625	-0.142
0.9575	-0.137
0.95875	-0.122
0.96	-0.103
0.96125	-0.093
0.9625	-0.088
0.96375	-0.093
0.965	-0.083
0.96625	-0.073
0.9675	-0.063
0.96875	-0.049
0.97	-0.039
0.97125	-0.024
0.9725	-0.01
0.97375	0
0.975	0
0.97625	0.015
0.9775	0.015
0.97875	0.034
0.98	0.059
0.98125	0.083
0.9825	0.078
0.98375	0.083
0.985	0.093
0.98625	0.112
0.9875	0.112
0.98875	0.122
0.99	0.142
0.99125	0.137
0.9925	0.142
0.99375	0.146
0.995	0.151
0.99625	0.151
0.9975	0.161
0.99875	0.142
1	0.122
1.00125	0.103
1.0025	0.103
1.00375	0.088
1.005	0.054
1.00625	0.015
1.0075	0
1.00875	-0.015
1.01	-0.01
1.01125	-0.034
1.0125	-0.098
1.01375	-0.142
1.015	-0.186
1.01625	-0.161
1.0175	-0.142
1.01875	-0.166
1.02	-0.215
1.02125	-0.239
1.0225	-0.264
1.02375	-0.234
1.025	-0.195
1.02625	-0.132
1.0275	-0.127
1.02875	-0.151
1.03	-0.146
1.03125	-0.132
1.0325	-0.107
1.03375	-0.083
1.035	-0.098
1.03625	-0.127
1.0375	-0.156
1.03875	-0.181
1.04	-0.151
1.04125	-0.127
1.0425	-0.166
1.04375	-0.234
1.045	-0.293
1.04625	-0.313
1.0475	-0.313
1.04875	-0.308
1.05	-0.332
1.05125	-0.371
1.0525	-0.4
1.05375	-0.425
1.055	-0.415
1.05625	-0.42
1.0575	-0.488
1.05875	-0.576
1.06	-0.61
1.06125	-0.562
1.0625	-0.396
1.06375	-0.22
1.065	-0.044
1.06625	0.166
1.0675	0.356
1.06875	0.454
1.07	0.542
1.07125	0.615
1.0725	0.693
1.07375	0.742
1.075	0.757
1.07625	0.737
1.0775	0.679
1.07875	0.684
1.08	0.737
1.08125	0.747
1.0825	0.698
1.08375	0.645
1.085	0.586
1.08625	0.518
1.0875	0.483
1.08875	0.449
1.09	0.4
1.09125	0.371
1.0925	0.337
1.09375	0.308
1.095	0.269
1.09625	0.229
1.0975	0.21
1.09875	0.181
1.1	0.137
1.10125	0.142
1.1025	0.146
1.10375	0.137
1.105	0.142
1.10625	0.186
1.1075	0.234
1.10875	0.283
1.11	0.293
1.11125	0.288
1.1125	0.259
1.11375	0.254
1.115	0.254
1.11625	0.225
1.1175	0.127
1.11875	0.117
1.12	0.122
1.12125	0.098
1.1225	0.029
1.12375	-0.044
1.125	-0.107
1.12625	-0.166
1.1275	-0.21
1.12875	-0.269
1.13	-0.347
1.13125	-0.332
1.1325	-0.332
1.13375	-0.322
1.135	-0.356
1.13625	-0.361
1.1375	-0.371
1.13875	-0.405
1.14	-0.415
1.14125	-0.415
1.1425	-0.391
1.14375	-0.361
1.145	-0.391
1.14625	-0.4
1.1475	-0.4
1.14875	-0.41
1.15	-0.459
1.15125	-0.493
1.1525	-0.503
1.15375	-0.552
1.155	-0.62
1.15625	-0.649
1.1575	-0.703
1.15875	-0.737
1.16	-0.752
1.16125	-0.718
1.1625	-0.703
1.16375	-0.693
1.165	-0.659
1.16625	-0.659
1.1675	-0.664
1.16875	-0.649
1.17	-0.601
1.17125	-0.537
1.1725	-0.464
1.17375	-0.405
1.175	-0.347
1.17625	-0.352
1.1775	-0.371
1.17875	-0.396
1.18	-0.444
1.18125	-0.449
1.1825	-0.43
1.18375	-0.425
1.185	-0.264
1.18625	-0.161
1.1875	-0.122
1.18875	-0.142
1.19	-0.2
1.19125	-0.137
1.1925	-0.068
1.19375	-0.073
1.195	-0.039
1.19625	-0.029
1.1975	-0.02
1.19875	-0.02
1.2	0.015
