0.00125	-0.347
0.0025	-0.337
0.00375	-0.337
0.005	-0.337
0.00625	-0.332
0.0075	-0.337
0.00875	-0.342
0.01	-0.347
0.01125	-0.347
0.0125	-0.352
0.01375	-0.352
0.015	-0.352
0.01625	-0.347
0.0175	-0.332
0.01875	-0.322
0.02	-0.327
0.02125	-0.327
0.0225	-0.317
0.02375	-0.283
0.025	-0.269
0.02625	-0.249
0.0275	-0.225
0.02875	-0.205
0.03	-0.21
0.03125	-0.215
0.0325	-0.225
0.03375	-0.225
0.035	-0.22
0.03625	-0.225
0.0375	-0.234
0.03875	-0.239
0.04	-0.254
0.04125	-0.278
0.0425	-0.322
0.04375	-0.352
0.045	-0.376
0.04625	-0.381
0.0475	-0.376
0.04875	-0.361
0.05	-0.356
0.05125	-0.342
0.0525	-0.327
0.05375	-0.308
0.055	-0.278
0.05625	-0.21
0.0575	-0.093
0.05875	0.103
0.06	0.303
0.06125	0.41
0.0625	0.522
0.06375	0.645
0.065	0.747
0.06625	0.84
0.0675	0.845
0.06875	0.791
0.07	0.688
0.07125	0.527
0.0725	0.317
0.07375	0.146
0.075	0.005
0.07625	-0.107
0.0775	-0.2
0.07875	-0.273
0.08	-0.308
0.08125	-0.342
0.0825	-0.405
0.08375	-0.454
0.085	-0.503
0.08625	-0.542
0.0875	-0.596
0.08875	-0.645
0.09	-0.669
0.09125	-0.698
0.0925	-0.708
0.09375	-0.698
0.095	-0.645
0.09625	-0.581
0.0975	-0.479
0.09875	-0.371
0.1	-0.283
0.10125	-0.2
0.1025	-0.122
0.10375	-0.059
0.105	-0.01
0.10625	0.015
0.1075	0.024
0.10875	0.034
0.11	0.068
0.11125	0.083
0.1125	0.088
0.11375	0.112
0.115	0.146
0.11625	0.176
0.1175	0.2
0.11875	0.239
0.12	0.264
0.12125	0.288
0.1225	0.317
0.12375	0.371
0.125	0.435
0.12625	0.474
0.1275	0.483
0.12875	0.474
0.13	0.444
0.13125	0.425
0.1325	0.386
0.13375	0.322
0.135	0.244
0.13625	0.156
0.1375	0.073
0.13875	0.02
0.14	-0.015
0.14125	-0.024
0.1425	-0.044
0.14375	-0.054
0.145	-0.073
0.14625	-0.078
0.1475	-0.093
0.14875	-0.088
0.15	-0.098
0.15125	-0.073
0.1525	-0.054
0.15375	-0.034
0.155	-0.024
0.15625	-0.005
0.1575	0.024
0.15875	0.049
0.16	0.068
0.16125	0.093
0.1625	0.127
0.16375	0.161
0.165	0.186
0.16625	0.21
0.1675	0.225
0.16875	0.234
0.17	0.249
0.17125	0.239
0.1725	0.259
0.17375	0.234
0.175	0.205
0.17625	0.171
0.1775	0.146
0.17875	0.127
0.18	0.103
0.18125	0.093
0.1825	0.088
0.18375	0.068
0.185	0.039
0.18625	0.029
0.1875	0.01
0.18875	-0.01
0.19	-0.039
0.19125	-0.068
0.1925	-0.088
0.19375	-0.107
0.195	-0.146
0.19625	-0.176
0.1975	-0.195
0.19875	-0.205
0.2	-0.215
0.20125	-0.215
0.2025	-0.22
0.20375	-0.205
0.205	-0.195
0.20625	-0.181
0.2075	-0.156
0.20875	-0.142
0.21	-0.122
0.21125	-0.093
0.2125	-0.068
0.21375	-0.049
0.215	-0.029
0.21625	-0.01
0.2175	0.034
0.21875	0.063
0.22	0.063
0.22125	0.054
0.2225	0.049
0.22375	0.044
0.225	0.044
0.22625	0.029
0.2275	0.029
0.22875	0.02
0.23	0.02
0.23125	0.039
0.2325	0.044
0.23375	0.044
0.235	0.039
0.23625	0.024
0.2375	0.02
0.23875	0.005
0.24	0.005
0.24125	0
0.2425	0
0.24375	0.015
0.245	-0.005
0.24625	-0.015
0.2475	-0.015
0.24875	0.01
0.25	0.005
0.25125	0.015
0.2525	0.01
0.25375	-0.02
0.255	-0.024
0.25625	-0.044
0.2575	-0.054
0.25875	-0.005
0.26	0.059
0.26125	0.132
0.2625	0.132
0.26375	0.151
0.265	0.21
0.26625	0.249
0.2675	0.278
0.26875	0.269
0.27	0.273
0.27125	0.269
0.2725	0.298
0.27375	0.278
0.275	0.283
0.27625	0.293
0.2775	0.298
0.27875	0.313
0.28	0.308
0.28125	0.317
0.2825	0.332
0.28375	0.332
0.285	0.317
0.28625	0.308
0.2875	0.308
0.28875	0.288
0.29	0.19
0.29125	0.122
0.2925	0.059
0.29375	0
0.295	-0.034
0.29625	-0.073
0.2975	-0.059
0.29875	-0.029
0.3	-0.02
0.30125	-0.044
0.3025	-0.063
0.30375	-0.01
0.305	0.02
0.30625	-0.005
0.3075	0.078
0.30875	0.19
0.31	0.21
0.31125	0.278
0.3125	0.288
0.31375	0.313
0.315	0.205
0.31625	0.132
0.3175	0.039
0.31875	-0.005
0.32	-0.039
0.32125	-0.015
0.3225	-0.015
0.32375	-0.024
0.325	0.059
0.32625	0.059
0.3275	0.005
0.32875	-0.039
0.33	-0.073
0.33125	-0.098
0.3325	-0.161
0.33375	-0.254
0.335	-0.239
0.33625	-0.22
0.3375	-0.273
0.33875	-0.327
0.34	-0.381
0.34125	-0.459
0.3425	-0.527
0.34375	-0.566
0.345	-0.527
0.34625	-0.41
0.3475	-0.269
0.34875	-0.327
0.35	-0.342
0.35125	-0.371
0.3525	-0.342
0.35375	-0.405
0.355	-0.444
0.35625	-0.425
0.3575	-0.42
0.35875	-0.415
0.36	-0.371
0.36125	-0.42
0.3625	-0.391
0.36375	-0.327
0.365	-0.19
0.36625	-0.112
0.3675	0.068
0.36875	0.225
0.37	0.293
0.37125	0.366
0.3725	0.488
0.37375	0.439
0.375	0.229
0.37625	0.308
0.3775	0.342
0.37875	0.225
0.38	0.264
0.38125	0.269
0.3825	0.498
0.38375	0.586
0.385	0.669
0.38625	0.605
0.3875	0.625
0.38875	0.562
0.39	0.532
0.39125	0.63
0.3925	0.532
0.39375	0.239
0.395	0.176
0.39625	0.234
0.3975	0.161
0.39875	0.029
0.4	-0.073
0.40125	-0.195
0.4025	-0.137
0.40375	-0.21
0.405	-0.396
0.40625	-0.322
0.4075	-0.02
0.40875	-0.171
0.41	-0.19
0.41125	-0.205
0.4125	-0.029
0.41375	0.142
0.415	-0.215
0.41625	-0.337
0.4175	-0.322
0.41875	-0.317
0.42	-0.215
0.42125	-0.063
0.4225	0.029
0.42375	-0.098
0.425	-0.186
0.42625	-0.254
0.4275	-0.259
0.42875	-0.127
0.43	0.044
0.43125	0.137
0.4325	0.298
0.43375	0.479
0.435	0.283
0.43625	-0.078
0.4375	-0.293
0.43875	-0.322
0.44	-0.41
0.44125	-0.63
0.4425	-0.815
0.44375	-0.894
0.445	-0.835
0.44625	-0.825
0.4475	-0.737
0.44875	-0.347
0.45	0.122
0.45125	0.415
0.4525	-0.215
0.45375	-0.479
0.455	-0.522
0.45625	-0.562
0.4575	-0.542
0.45875	-0.503
0.46	-0.552
0.46125	-0.464
0.4625	-0.327
0.46375	-0.22
0.465	-0.107
0.46625	-0.142
0.4675	-0.083
0.46875	0.068
0.47	0.122
0.47125	0.21
0.4725	0.278
0.47375	0.327
0.475	0.42
0.47625	0.278
0.4775	0.269
0.47875	0.283
0.48	0.288
0.48125	0.317
0.4825	0.303
0.48375	0.518
0.485	0.596
0.48625	0.679
0.4875	0.972
0.48875	1.221
0.49	1.157
0.49125	1.206
0.4925	1.284
0.49375	1.455
0.495	1.23
0.49625	1.216
0.4975	1.152
0.49875	1.177
0.5	1.27
0.50125	1.479
0.5025	1.875
0.50375	1.709
0.505	1.304
0.50625	0.908
0.5075	0.518
0.50875	0.278
0.51	0.093
0.51125	-0.093
0.5125	0.098
0.51375	-0.264
0.515	-0.776
0.51625	-1.084
0.5175	-1.372
0.51875	-1.548
0.52	-1.714
0.52125	-2.021
0.5225	-2.217
0.52375	-2.109
0.525	-1.973
0.52625	-2.139
0.5275	-2.021
0.52875	-1.709
0.53	-1.67
0.53125	-1.436
0.5325	-1.265
0.53375	-1.138
0.535	-0.889
0.53625	-0.806
0.5375	-0.679
0.53875	-0.41
0.54	-0.107
0.54125	0.176
0.5425	0.366
0.54375	0.566
0.545	0.737
0.54625	0.776
0.5475	0.776
0.54875	0.791
0.55	0.894
0.55125	1.045
0.5525	1.299
0.55375	1.553
0.555	1.729
0.55625	1.772
0.5575	1.807
0.55875	1.768
0.56	1.641
0.56125	1.577
0.5625	1.582
0.56375	1.616
0.565	1.523
0.56625	1.572
0.5675	1.499
0.56875	1.216
0.57	0.894
0.57125	0.62
0.5725	0.386
0.57375	0.171
0.575	-0.107
0.57625	-0.366
0.5775	-0.63
0.57875	-0.889
0.58	-1.162
0.58125	-1.382
0.5825	-1.509
0.58375	-1.709
0.585	-1.875
0.58625	-2.031
0.5875	-2.124
0.58875	-2.217
0.59	-2.173
0.59125	-2.114
0.5925	-2.021
0.59375	-2.075
0.595	-1.958
0.59625	-1.943
0.5975	-1.895
0.59875	-1.812
0.6	-1.719
0.60125	-1.587
0.6025	-1.382
0.60375	-1.221
0.605	-1.177
0.60625	-0.972
0.6075	-0.85
0.60875	-0.781
0.61	-0.649
0.61125	-0.459
0.6125	-0.352
0.61375	-0.215
0.615	-0.112
0.61625	-0.015
0.6175	0.127
0.61875	0.239
0.62	0.366
0.62125	0.488
0.6225	0.596
0.62375	0.581
0.625	0.581
0.62625	0.605
0.6275	0.601
0.62875	0.664
0.63	0.718
0.63125	0.718
0.6325	0.762
0.63375	0.801
0.635	0.864
0.63625	0.894
0.6375	0.728
0.63875	0.566
0.64	0.542
0.64125	0.605
0.6425	0.762
0.64375	0.942
0.645	1.016
0.64625	1.152
0.6475	1.255
0.64875	1.26
0.65	1.284
0.65125	1.392
0.6525	1.455
0.65375	1.392
0.655	1.318
0.65625	1.284
0.6575	1.274
0.65875	1.133
0.66	1.074
0.66125	0.991
0.6625	0.898
0.66375	0.811
0.665	0.713
0.66625	0.601
0.6675	0.498
0.66875	0.415
0.67	0.371
0.67125	0.366
0.6725	0.337
0.67375	0.361
0.675	0.308
0.67625	0.249
0.6775	0.229
0.67875	0.21
0.68	0.171
0.68125	0.132
0.6825	0.093
0.68375	0.049
0.685	0.034
0.68625	0.107
0.6875	0
0.68875	-0.02
0.69	-0.015
0.69125	-0.044
0.6925	-0.049
0.69375	-0.063
0.695	-0.093
0.69625	-0.127
0.6975	-0.176
0.69875	-0.254
0.7	-0.322
0.70125	-0.42
0.7025	-0.503
0.70375	-0.586
0.705	-0.654
0.70625	-0.718
0.7075	-0.723
0.70875	-0.728
0.71	-0.791
0.71125	-0.815
0.7125	-0.767
0.71375	-0.693
0.715	-0.664
0.71625	-0.684
0.7175	-0.698
0.71875	-0.635
0.72	-0.576
0.72125	-0.498
0.7225	-0.435
0.72375	-0.371
0.725	-0.327
0.72625	-0.332
0.7275	-0.313
0.72875	-0.269
0.73	-0.19
0.73125	-0.176
0.7325	-0.142
0.73375	-0.024
0.735	0.073
0.73625	0.073
0.7375	0.132
0.73875	0.225
0.74	0.288
0.74125	0.317
0.7425	0.342
0.74375	0.356
0.745	0.376
0.74625	0.405
0.7475	0.405
0.74875	0.4
0.75	0.342
0.75125	0.269
0.7525	0.19
0.75375	0.132
0.755	0.112
0.75625	0.112
0.7575	0.137
0.75875	0.132
0.76	0.107
0.76125	0.132
0.7625	0.112
0.76375	0.117
0.765	0.112
0.76625	0.054
0.7675	0.029
0.76875	0.142
0.77	0.2
0.77125	0.259
0.7725	0.332
0.77375	0.308
0.775	0.288
0.77625	0.278
0.7775	0.303
0.77875	0.308
0.78	0.381
0.78125	0.386
0.7825	0.4
0.78375	0.415
0.785	0.43
0.78625	0.469
0.7875	0.454
0.78875	0.332
0.79	0.19
0.79125	0.088
0.7925	-0.02
0.79375	-0.186
0.795	-0.327
0.79625	-0.479
0.7975	-0.625
0.79875	-0.752
0.8	-0.864
0.80125	-0.947
0.8025	-1.001
0.80375	-1.006
0.805	-0.986
0.80625	-0.923
0.8075	-0.85
0.80875	-0.737
0.81	-0.601
0.81125	-0.464
0.8125	-0.288
0.81375	-0.122
0.815	0.054
0.81625	0.215
0.8175	0.337
0.81875	0.469
0.82	0.61
0.82125	0.698
0.8225	0.757
0.82375	0.801
0.825	0.811
0.82625	0.806
0.8275	0.747
0.82875	0.654
0.83	0.503
0.83125	0.322
0.8325	0.137
0.83375	0.005
0.835	-0.068
0.83625	-0.181
0.8375	-0.317
0.83875	-0.464
0.84	-0.557
0.84125	-0.649
0.8425	-0.791
0.84375	-0.835
0.845	-0.747
0.84625	-0.737
0.8475	-0.786
0.84875	-0.801
0.85	-0.742
0.85125	-0.698
0.8525	-0.684
0.85375	-0.679
0.855	-0.64
0.85625	-0.679
0.8575	-0.708
0.85875	-0.713
0.86	-0.679
0.86125	-0.625
0.8625	-0.547
0.86375	-0.493
0.865	-0.474
0.86625	-0.483
0.8675	-0.479
0.86875	-0.459
0.87	-0.396
0.87125	-0.352
0.8725	-0.317
0.87375	-0.308
0.875	-0.376
0.87625	-0.4
0.8775	-0.41
0.87875	-0.405
0.88	-0.386
0.88125	-0.342
0.8825	-0.322
0.88375	-0.283
0.885	-0.22
0.88625	-0.146
0.8875	-0.107
0.88875	-0.156
0.89	-0.21
0.89125	-0.215
0.8925	-0.166
0.89375	-0.093
0.895	-0.049
0.89625	0
0.8975	0.078
0.89875	0.142
0.9	0.181
0.90125	0.21
0.9025	0.244
0.90375	0.254
0.905	0.308
0.90625	0.41
0.9075	0.503
0.90875	0.552
0.91	0.596
0.91125	0.615
0.9125	0.664
0.91375	0.684
0.915	0.703
0.91625	0.713
0.9175	0.723
0.91875	0.737
0.92	0.757
0.92125	0.757
0.9225	0.791
0.92375	0.786
0.925	0.776
0.92625	0.757
0.9275	0.659
0.92875	0.537
0.93	0.439
0.93125	0.444
0.9325	0.483
0.93375	0.435
0.935	0.405
0.93625	0.327
0.9375	0.317
0.93875	0.298
0.94	0.22
0.94125	0.166
0.9425	0.103
0.94375	0.005
0.945	-0.02
0.94625	-0.054
0.9475	-0.156
0.94875	-0.244
0.95	-0.293
0.95125	-0.352
0.9525	-0.4
0.95375	-0.444
0.955	-0.488
0.95625	-0.503
0.9575	-0.508
0.95875	-0.454
0.96	-0.4
0.96125	-0.356
0.9625	-0.342
0.96375	-0.308
0.965	-0.269
0.96625	-0.225
0.9675	-0.181
0.96875	-0.146
0.97	-0.093
0.97125	-0.059
0.9725	-0.024
0.97375	0
0.975	0.02
0.97625	0.01
0.9775	0.034
0.97875	0.068
0.98	0.088
0.98125	0.103
0.9825	0.127
0.98375	0.156
0.985	0.171
0.98625	0.186
0.9875	0.215
0.98875	0.264
0.99	0.313
0.99125	0.352
0.9925	0.405
0.99375	0.464
0.995	0.527
0.99625	0.571
0.9975	0.591
0.99875	0.62
1	0.659
1.00125	0.693
1.0025	0.718
1.00375	0.732
1.005	0.757
1.00625	0.767
1.0075	0.737
1.00875	0.708
1.01	0.703
1.01125	0.684
1.0125	0.664
1.01375	0.645
1.015	0.63
1.01625	0.62
1.0175	0.615
1.01875	0.591
1.02	0.522
1.02125	0.449
1.0225	0.391
1.02375	0.317
1.025	0.239
1.02625	0.151
1.0275	0.044
1.02875	-0.063
1.03	-0.186
1.03125	-0.298
1.0325	-0.391
1.03375	-0.488
1.035	-0.571
1.03625	-0.654
1.0375	-0.732
1.03875	-0.801
1.04	-0.869
1.04125	-0.894
1.0425	-0.977
1.04375	-1.006
1.045	-1.011
1.04625	-0.991
1.0475	-0.981
1.04875	-0.972
1.05	-0.957
1.05125	-0.918
1.0525	-0.884
1.05375	-0.835
1.055	-0.791
1.05625	-0.757
1.0575	-0.718
1.05875	-0.674
1.06	-0.649
1.06125	-0.62
1.0625	-0.605
1.06375	-0.601
1.065	-0.591
1.06625	-0.591
1.0675	-0.586
1.06875	-0.596
1.07	-0.61
1.07125	-0.63
1.0725	-0.64
1.07375	-0.664
1.075	-0.688
1.07625	-0.713
1.0775	-0.737
1.07875	-0.762
1.08	-0.786
1.08125	-0.796
1.0825	-0.791
1.08375	-0.786
1.085	-0.747
1.08625	-0.698
1.0875	-0.791
1.08875	-0.947
1.09	-1.128
1.09125	-1.294
1.0925	-1.27
1.09375	-1.226
1.095	-1.147
1.09625	-0.908
1.0975	-0.586
1.09875	-0.2
1.1	0.22
1.10125	0.63
1.1025	0.996
1.10375	1.27
1.105	1.416
1.10625	1.45
1.1075	1.392
1.10875	1.274
1.11	1.162
1.11125	1.104
1.1125	1.079
1.11375	0.972
1.115	0.918
1.11625	0.894
1.1175	0.918
1.11875	0.967
1.12	1.001
1.12125	1.025
1.1225	1.084
1.12375	1.182
1.125	1.323
1.12625	1.489
1.1275	1.646
1.12875	1.782
1.13	1.909
1.13125	2.002
1.1325	2.09
1.13375	2.129
1.135	2.158
1.13625	2.168
1.1375	2.168
1.13875	2.124
1.14	2.021
